##NAMES=Albite
##RRUFFID=X050007
##IDEAL CHEMISTRY=NaAlSi_3_O_8_
##LOCALITY=New Melones Dam, Calaveras County, California
##OWNER=George R. Rossman
##SOURCE=George R. Rossman
##DESCRIPTION=
##STATUS=The identification of this mineral has been determined only by Raman spectroscopy
##URL=rruff.info/X050007
206.000, 0.000
207.000, 47.620
208.000, 85.775
209.000, 105.826
210.000, 124.997
211.000, 102.408
212.000, 79.492
213.000, 58.498
214.000, 36.605
215.000, 17.205
216.000, 12.050
217.000, 5.238
218.000, 5.736
219.000, 7.249
220.000, 8.356
221.000, 8.624
222.000, 7.054
223.000, 6.789
224.000, 5.324
225.000, 4.367
226.000, 2.778
227.000, 1.341
228.000, 0.441
229.000, 0.448
230.000, 1.739
231.000, 3.018
232.000, 3.199
233.000, 2.760
234.000, 2.188
235.000, 1.312
236.000, 0.423
237.000, 0.479
238.000, 1.390
239.000, 3.224
240.000, 5.840
241.000, 9.062
242.000, 15.076
243.000, 21.096
244.000, 31.603
245.000, 43.149
246.000, 58.718
247.000, 79.183
248.000, 100.537
249.000, 130.776
250.000, 161.022
251.000, 175.806
252.000, 184.869
253.000, 181.186
254.000, 155.894
255.000, 130.574
256.000, 103.553
257.000, 76.527
258.000, 60.929
259.000, 51.294
260.000, 44.490
261.000, 44.249
262.000, 44.041
263.000, 52.317
264.000, 61.072
265.000, 73.882
266.000, 89.446
267.000, 104.693
268.000, 118.971
269.000, 133.234
270.000, 133.422
271.000, 131.910
272.000, 125.282
273.000, 114.380
274.000, 104.199
275.000, 96.765
276.000, 89.328
277.000, 90.545
278.000, 93.299
279.000, 101.663
280.000, 115.557
281.000, 132.324
282.000, 164.186
283.000, 196.058
284.000, 253.375
285.000, 316.443
286.000, 396.189
287.000, 494.417
288.000, 590.327
289.000, 671.422
290.000, 752.557
291.000, 747.473
292.000, 720.000
293.000, 656.399
294.000, 549.671
295.000, 445.476
296.000, 360.458
297.000, 275.427
298.000, 221.177
299.000, 175.441
300.000, 140.010
301.000, 117.334
302.000, 96.039
303.000, 85.366
304.000, 74.693
305.000, 68.710
306.000, 64.034
307.000, 60.519
308.000, 58.417
309.000, 56.263
310.000, 53.731
311.000, 51.198
312.000, 47.985
313.000, 44.594
314.000, 42.379
315.000, 39.851
316.000, 37.459
317.000, 36.437
318.000, 35.303
319.000, 36.849
320.000, 38.920
321.000, 43.837
322.000, 51.733
323.000, 61.041
324.000, 78.139
325.000, 95.105
326.000, 121.465
327.000, 149.458
328.000, 167.856
329.000, 177.628
330.000, 180.390
331.000, 156.455
332.000, 132.496
333.000, 106.978
334.000, 81.245
335.000, 62.637
336.000, 49.354
337.000, 37.801
338.000, 31.306
339.000, 24.733
340.000, 21.004
341.000, 17.492
342.000, 15.390
343.000, 14.161
344.000, 13.140
345.000, 12.472
346.000, 11.837
347.000, 12.523
348.000, 13.240
349.000, 12.783
350.000, 11.845
351.000, 10.599
352.000, 8.875
353.000, 7.242
354.000, 6.040
355.000, 4.838
356.000, 3.971
357.000, 3.201
358.000, 2.430
359.000, 1.657
360.000, 0.957
361.000, 0.618
362.000, 0.278
363.000, 0.063
364.000, 0.405
365.000, 0.748
366.000, 1.091
367.000, 1.320
368.000, 1.233
369.000, 1.147
370.000, 1.061
371.000, 0.975
372.000, 1.180
373.000, 1.532
374.000, 1.723
375.000, 1.642
376.000, 1.562
377.000, 1.483
378.000, 1.406
379.000, 1.329
380.000, 1.252
381.000, 0.963
382.000, 0.452
383.000, 0.058
384.000, 0.568
385.000, 1.077
386.000, 1.189
387.000, 1.261
388.000, 2.412
389.000, 4.230
390.000, 5.759
391.000, 6.702
392.000, 7.760
393.000, 11.325
394.000, 14.890
395.000, 19.449
396.000, 24.326
397.000, 29.203
398.000, 34.081
399.000, 38.376
400.000, 40.186
401.000, 41.996
402.000, 44.999
403.000, 48.124
404.000, 58.677
405.000, 73.651
406.000, 88.471
407.000, 103.006
408.000, 115.875
409.000, 106.268
410.000, 96.662
411.000, 83.224
412.000, 68.781
413.000, 62.272
414.000, 63.208
415.000, 64.355
416.000, 66.171
417.000, 67.987
418.000, 58.317
419.000, 48.255
420.000, 37.576
421.000, 26.625
422.000, 18.462
423.000, 14.102
424.000, 10.141
425.000, 8.414
426.000, 6.682
427.000, 5.336
428.000, 4.037
429.000, 3.279
430.000, 2.857
431.000, 2.588
432.000, 2.604
433.000, 2.621
434.000, 2.637
435.000, 2.654
436.000, 3.033
437.000, 3.494
438.000, 3.710
439.000, 3.732
440.000, 3.755
441.000, 3.780
442.000, 3.821
443.000, 4.292
444.000, 4.764
445.000, 5.582
446.000, 6.503
447.000, 7.199
448.000, 7.686
449.000, 8.516
450.000, 10.324
451.000, 12.129
452.000, 14.373
453.000, 16.615
454.000, 19.534
455.000, 22.701
456.000, 25.220
457.000, 27.060
458.000, 28.359
459.000, 27.966
460.000, 27.554
461.000, 28.874
462.000, 30.206
463.000, 32.521
464.000, 35.181
465.000, 39.367
466.000, 45.137
467.000, 51.987
468.000, 62.210
469.000, 72.432
470.000, 91.532
471.000, 110.656
472.000, 143.842
473.000, 181.683
474.000, 235.798
475.000, 305.740
476.000, 379.580
477.000, 464.280
478.000, 547.443
479.000, 562.138
480.000, 576.827
481.000, 522.030
482.000, 447.862
483.000, 373.420
484.000, 298.752
485.000, 233.606
486.000, 190.237
487.000, 148.483
488.000, 129.240
489.000, 110.024
490.000, 100.506
491.000, 92.966
492.000, 90.224
493.000, 90.733
494.000, 93.996
495.000, 102.114
496.000, 111.865
497.000, 132.535
498.000, 153.208
499.000, 191.616
500.000, 232.040
501.000, 299.163
502.000, 379.546
503.000, 482.824
504.000, 615.364
505.000, 743.047
506.000, 852.682
507.000, 962.316
508.000, 929.059
509.000, 893.624
510.000, 782.016
511.000, 646.356
512.000, 523.867
513.000, 412.825
514.000, 317.215
515.000, 255.629
516.000, 196.592
517.000, 163.331
518.000, 130.069
519.000, 110.523
520.000, 93.026
521.000, 79.916
522.000, 69.167
523.000, 59.782
524.000, 52.189
525.000, 45.175
526.000, 40.284
527.000, 35.392
528.000, 32.301
529.000, 29.213
530.000, 26.124
531.000, 23.034
532.000, 20.717
533.000, 18.983
534.000, 17.088
535.000, 14.897
536.000, 12.832
537.000, 11.538
538.000, 10.242
539.000, 9.369
540.000, 8.526
541.000, 7.355
542.000, 6.060
543.000, 5.236
544.000, 4.851
545.000, 4.328
546.000, 3.495
547.000, 2.710
548.000, 2.331
549.000, 1.954
550.000, 1.577
551.000, 1.202
552.000, 0.827
553.000, 0.453
554.000, 0.078
555.000, 0.295
556.000, 0.533
557.000, 0.452
558.000, 0.371
559.000, 0.290
560.000, 0.209
561.000, 0.537
562.000, 0.910
563.000, 0.953
564.000, 0.848
565.000, 0.757
566.000, 0.672
567.000, 0.439
568.000, 0.119
569.000, 0.694
570.000, 1.295
571.000, 1.869
572.000, 3.687
573.000, 5.618
574.000, 7.898
575.000, 10.309
576.000, 12.964
577.000, 15.827
578.000, 18.047
579.000, 19.078
580.000, 19.661
581.000, 17.947
582.000, 16.231
583.000, 13.175
584.000, 10.103
585.000, 7.779
586.000, 5.616
587.000, 3.991
588.000, 2.724
589.000, 1.650
590.000, 0.848
591.000, 0.170
592.000, 0.153
593.000, 0.451
594.000, 0.319
595.000, 0.189
596.000, 0.464
597.000, 0.796
598.000, 0.808
599.000, 0.684
600.000, 0.563
601.000, 0.456
602.000, 0.360
603.000, 0.264
604.000, 0.169
605.000, 0.075
606.000, 0.019
607.000, 0.110
608.000, 0.199
609.000, 0.287
610.000, 0.376
611.000, 0.464
612.000, 0.552
613.000, 0.640
614.000, 0.728
615.000, 0.816
616.000, 0.903
617.000, 1.057
618.000, 1.606
619.000, 2.154
620.000, 2.703
621.000, 3.252
622.000, 4.174
623.000, 5.185
624.000, 6.198
625.000, 7.214
626.000, 8.672
627.000, 10.609
628.000, 12.692
629.000, 15.091
630.000, 17.562
631.000, 20.425
632.000, 23.288
633.000, 23.381
634.000, 23.466
635.000, 22.386
636.000, 21.080
637.000, 19.774
638.000, 18.467
639.000, 17.888
640.000, 17.972
641.000, 18.397
642.000, 19.408
643.000, 20.519
644.000, 21.995
645.000, 23.388
646.000, 23.471
647.000, 23.554
648.000, 22.371
649.000, 21.059
650.000, 18.690
651.000, 15.980
652.000, 13.553
653.000, 11.308
654.000, 9.489
655.000, 8.173
656.000, 6.857
657.000, 5.540
658.000, 4.375
659.000, 3.990
660.000, 3.596
661.000, 2.743
662.000, 1.889
663.000, 1.837
664.000, 1.891
665.000, 1.948
666.000, 2.008
667.000, 2.071
668.000, 2.137
669.000, 1.770
670.000, 0.868
671.000, 0.397
672.000, 0.899
673.000, 1.246
674.000, 0.820
675.000, 0.405
676.000, 0.012
677.000, 0.380
678.000, 0.067
679.000, 0.609
680.000, 0.438
681.000, 0.042
682.000, 0.059
683.000, 0.013
684.000, 0.085
685.000, 0.156
686.000, 0.226
687.000, 0.295
688.000, 0.364
689.000, 0.432
690.000, 0.451
691.000, 0.048
692.000, 0.355
693.000, 0.159
694.000, 0.694
695.000, 0.828
696.000, 0.892
697.000, 0.614
698.000, 0.206
699.000, 0.074
700.000, 0.113
701.000, 0.135
702.000, 0.163
703.000, 0.197
704.000, 0.213
705.000, 0.210
706.000, 0.205
707.000, 0.258
708.000, 0.735
709.000, 1.218
710.000, 1.236
711.000, 1.255
712.000, 1.279
713.000, 1.308
714.000, 1.699
715.000, 2.209
716.000, 2.721
717.000, 3.236
718.000, 3.502
719.000, 3.547
720.000, 3.791
721.000, 4.312
722.000, 4.545
723.000, 4.119
724.000, 3.693
725.000, 3.267
726.000, 2.881
727.000, 2.929
728.000, 2.976
729.000, 2.561
730.000, 2.133
731.000, 1.705
732.000, 1.276
733.000, 1.569
734.000, 2.089
735.000, 2.298
736.000, 2.342
737.000, 2.386
738.000, 2.429
739.000, 2.686
740.000, 3.205
741.000, 3.558
742.000, 3.600
743.000, 3.641
744.000, 3.683
745.000, 3.795
746.000, 4.316
747.000, 4.860
748.000, 5.857
749.000, 6.853
750.000, 7.849
751.000, 8.845
752.000, 10.248
753.000, 11.721
754.000, 13.919
755.000, 16.346
756.000, 20.364
757.000, 25.180
758.000, 31.368
759.000, 38.578
760.000, 46.018
761.000, 53.706
762.000, 59.337
763.000, 61.765
764.000, 61.880
765.000, 56.653
766.000, 51.033
767.000, 43.904
768.000, 37.138
769.000, 32.880
770.000, 28.693
771.000, 26.329
772.000, 23.961
773.000, 23.889
774.000, 23.940
775.000, 22.734
776.000, 21.343
777.000, 19.949
778.000, 18.543
779.000, 16.443
780.000, 14.076
781.000, 12.318
782.000, 10.908
783.000, 10.017
784.000, 9.541
785.000, 9.039
786.000, 8.563
787.000, 8.106
788.000, 7.642
789.000, 7.162
790.000, 6.674
791.000, 6.307
792.000, 6.307
793.000, 6.379
794.000, 6.852
795.000, 7.280
796.000, 7.283
797.000, 7.278
798.000, 6.802
799.000, 6.299
800.000, 6.693
801.000, 7.159
802.000, 7.642
803.000, 8.128
804.000, 9.020
805.000, 9.993
806.000, 11.317
807.000, 12.746
808.000, 15.510
809.000, 18.879
810.000, 22.856
811.000, 27.200
812.000, 31.547
813.000, 35.897
814.000, 38.311
815.000, 38.785
816.000, 37.147
817.000, 32.790
818.000, 28.253
819.000, 23.416
820.000, 19.043
821.000, 15.662
822.000, 12.663
823.000, 10.735
824.000, 9.006
825.000, 8.050
826.000, 7.169
827.000, 6.704
828.000, 6.239
829.000, 5.774
830.000, 5.307
831.000, 4.836
832.000, 4.364
833.000, 4.375
834.000, 4.391
835.000, 3.948
836.000, 3.474
837.000, 3.435
838.000, 3.449
839.000, 3.461
840.000, 3.471
841.000, 3.094
842.000, 2.618
843.000, 2.142
844.000, 1.665
845.000, 1.875
846.000, 2.377
847.000, 2.234
848.000, 1.756
849.000, 1.579
850.000, 1.590
851.000, 1.321
852.000, 0.841
853.000, 0.623
854.000, 0.633
855.000, 0.643
856.000, 0.653
857.000, 0.662
858.000, 0.672
859.000, 0.681
860.000, 0.690
861.000, 0.698
862.000, 0.707
863.000, 0.715
864.000, 0.723
865.000, 0.730
866.000, 0.738
867.000, 0.745
868.000, 0.753
869.000, 0.759
870.000, 0.766
871.000, 0.666
872.000, 0.180
873.000, 0.215
874.000, 0.209
875.000, 0.204
876.000, 0.199
877.000, 0.130
878.000, 0.368
879.000, 0.761
880.000, 0.271
881.000, 0.179
882.000, 0.176
883.000, 0.174
884.000, 0.171
885.000, 0.169
886.000, 0.167
887.000, 0.166
888.000, 0.164
889.000, 0.163
890.000, 0.163
891.000, 0.162
892.000, 0.162
893.000, 0.161
894.000, 0.161
895.000, 0.161
896.000, 0.161
897.000, 0.161
898.000, 0.161
899.000, 0.162
900.000, 0.287
901.000, 0.783
902.000, 0.395
903.000, 0.102
904.000, 0.163
905.000, 0.163
906.000, 0.267
907.000, 0.764
908.000, 0.836
909.000, 0.835
910.000, 0.414
911.000, 0.084
912.000, 0.165
913.000, 0.165
914.000, 0.249
915.000, 0.747
916.000, 0.835
917.000, 0.835
918.000, 0.835
919.000, 0.836
920.000, 0.836
921.000, 0.837
922.000, 0.838
923.000, 0.838
924.000, 0.434
925.000, 0.066
926.000, 0.160
927.000, 0.159
928.000, 0.159
929.000, 0.158
930.000, 0.249
931.000, 0.750
932.000, 0.433
933.000, 0.068
934.000, 0.158
935.000, 0.158
936.000, 0.158
937.000, 0.159
938.000, 0.258
939.000, 0.759
940.000, 0.419
941.000, 0.084
942.000, 0.264
943.000, 0.766
944.000, 0.837
945.000, 0.836
946.000, 0.400
947.000, 0.104
948.000, 0.276
949.000, 0.778
950.000, 0.832
951.000, 0.832
952.000, 0.831
953.000, 0.830
954.000, 1.293
955.000, 1.796
956.000, 1.827
957.000, 1.826
958.000, 1.825
959.000, 1.825
960.000, 1.822
961.000, 1.817
962.000, 2.313
963.000, 2.807
964.000, 2.803
965.000, 2.799
966.000, 2.796
967.000, 2.849
968.000, 3.858
969.000, 4.867
970.000, 5.877
971.000, 6.941
972.000, 8.458
973.000, 9.976
974.000, 11.495
975.000, 12.853
976.000, 13.359
977.000, 13.770
978.000, 13.768
979.000, 13.437
980.000, 11.906
981.000, 10.355
982.000, 8.805
983.000, 7.256
984.000, 5.707
985.000, 4.479
986.000, 3.967
987.000, 3.634
988.000, 3.629
989.000, 3.608
990.000, 3.588
991.000, 3.568
992.000, 3.549
993.000, 3.530
994.000, 3.512
995.000, 3.745
996.000, 4.238
997.000, 4.732
998.000, 5.226
999.000, 5.721
1000.000, 6.217
1001.000, 7.652
1002.000, 9.681
1003.000, 11.042
1004.000, 12.051
1005.000, 13.061
1006.000, 14.071
1007.000, 15.083
1008.000, 16.107
1009.000, 17.134
1010.000, 18.160
1011.000, 19.178
1012.000, 20.193
1013.000, 20.301
1014.000, 20.304
1015.000, 18.869
1016.000, 17.334
1017.000, 16.303
1018.000, 15.281
1019.000, 14.251
1020.000, 13.309
1021.000, 13.303
1022.000, 13.455
1023.000, 14.487
1024.000, 15.621
1025.000, 17.169
1026.000, 18.848
1027.000, 20.911
1028.000, 23.454
1029.000, 27.064
1030.000, 29.916
1031.000, 31.467
1032.000, 32.139
1033.000, 31.626
1034.000, 29.599
1035.000, 25.989
1036.000, 22.661
1037.000, 19.566
1038.000, 16.790
1039.000, 14.215
1040.000, 12.336
1041.000, 10.791
1042.000, 10.008
1043.000, 9.494
1044.000, 8.563
1045.000, 7.532
1046.000, 6.956
1047.000, 6.447
1048.000, 5.937
1049.000, 5.421
1050.000, 4.394
1051.000, 3.448
1052.000, 3.457
1053.000, 3.466
1054.000, 3.475
1055.000, 3.366
1056.000, 2.857
1057.000, 2.501
1058.000, 2.513
1059.000, 2.525
1060.000, 2.536
1061.000, 2.547
1062.000, 2.558
1063.000, 2.568
1064.000, 2.579
1065.000, 2.589
1066.000, 2.600
1067.000, 2.611
1068.000, 2.622
1069.000, 3.029
1070.000, 3.561
1071.000, 3.656
1072.000, 3.688
1073.000, 4.194
1074.000, 4.727
1075.000, 5.261
1076.000, 5.796
1077.000, 6.330
1078.000, 6.956
1079.000, 8.014
1080.000, 9.073
1081.000, 10.132
1082.000, 11.191
1083.000, 12.250
1084.000, 13.768
1085.000, 15.876
1086.000, 18.261
1087.000, 20.902
1088.000, 24.531
1089.000, 28.758
1090.000, 34.085
1091.000, 39.868
1092.000, 46.919
1093.000, 54.292
1094.000, 63.070
1095.000, 72.010
1096.000, 79.393
1097.000, 86.208
1098.000, 87.284
1099.000, 87.572
1100.000, 84.440
1101.000, 80.251
1102.000, 73.426
1103.000, 67.207
1104.000, 61.961
1105.000, 57.224
1106.000, 53.029
1107.000, 50.069
1108.000, 47.979
1109.000, 46.615
1110.000, 45.579
1111.000, 44.961
1112.000, 44.452
1113.000, 44.418
1114.000, 44.426
1115.000, 42.333
1116.000, 40.180
1117.000, 37.555
1118.000, 34.724
1119.000, 31.080
1120.000, 27.397
1121.000, 23.714
1122.000, 20.728
1123.000, 18.630
1124.000, 16.239
1125.000, 13.615
1126.000, 11.730
1127.000, 10.162
1128.000, 9.005
1129.000, 7.979
1130.000, 6.959
1131.000, 5.924
1132.000, 5.414
1133.000, 4.905
1134.000, 4.396
1135.000, 4.016
1136.000, 4.039
1137.000, 3.888
1138.000, 3.378
1139.000, 3.125
1140.000, 3.151
1141.000, 2.872
1142.000, 2.381
1143.000, 2.276
1144.000, 2.315
1145.000, 2.807
1146.000, 3.378
1147.000, 3.428
1148.000, 3.464
1149.000, 3.498
1150.000, 3.644
1151.000, 4.201
1152.000, 4.569
1153.000, 4.593
1154.000, 4.099
1155.000, 3.053
1156.000, 2.335
1157.000, 1.824
1158.000, 1.312
1159.000, 0.800
1160.000, 0.758
1161.000, 0.782
1162.000, 0.806
1163.000, 0.753
1164.000, 0.240
1165.000, 0.122
1166.000, 0.098
1167.000, 0.074
1168.000, 0.050
1169.000, 0.026
1170.000, 0.000
1171.000, 0.025
1172.000, 0.050
1173.000, 0.523
1174.000, 1.085
1175.000, 0.601
1176.000, 0.148
1177.000, 0.173
1178.000, 0.059
1179.000, 0.454
1180.000, 0.320
1181.000, 0.783
1182.000, 1.002
1183.000, 0.487
1184.000, 0.345
1185.000, 0.370
1186.000, 0.394
1187.000, 0.418
1188.000, 0.443
1189.000, 0.467
1190.000, 0.491
1191.000, 0.515
1192.000, 0.539
1193.000, 0.326
1194.000, 0.191
1195.000, 0.389
1196.000, 0.365
1197.000, 0.062
1198.000, 0.628
1199.000, 0.218
1200.000, 0.241
1201.000, 0.325
1202.000, 0.661
1203.000, 0.141
1204.000, 0.177
1205.000, 0.154
1206.000, 0.131
1207.000, 0.108
1208.000, 0.290
1209.000, 0.856
1210.000, 0.498
1211.000, 0.010
1212.000, 0.557
1213.000, 0.933
1214.000, 0.411
1215.000, 0.074
1216.000, 0.097
1217.000, 0.119
1218.000, 0.142
1219.000, 0.164
1220.000, 0.187
1221.000, 0.209
1222.000, 0.233
1223.000, 0.269
1224.000, 0.194
1225.000, 0.330
1226.000, 0.472
1227.000, 0.100
1228.000, 0.383
1229.000, 0.405
1230.000, 0.444
1231.000, 0.466
1232.000, 0.012
1233.000, 0.468
1234.000, 0.101
1235.000, 0.429
1236.000, 0.098
1237.000, 0.177
1238.000, 0.409
1239.000, 0.679
1240.000, 0.715
1241.000, 0.737
1242.000, 0.757
1243.000, 0.263
1244.000, 0.140
1245.000, 0.429
1246.000, 0.671
1247.000, 0.139
1248.000, 0.127
1249.000, 0.108
1250.000, 0.090
1251.000, 0.072
1252.000, 0.054
1253.000, 0.036
1254.000, 0.018
1255.000, 0.001
1256.000, 0.016
1257.000, 0.263
1258.000, 0.832
1259.000, 1.066
1260.000, 1.083
1261.000, 1.100
1262.000, 1.116
1263.000, 1.132
1264.000, 1.149
1265.000, 1.165
1266.000, 1.181
1267.000, 1.198
1268.000, 1.214
1269.000, 1.230
1270.000, 1.246
1271.000, 1.261
1272.000, 0.741
1273.000, 0.382
1274.000, 0.951
1275.000, 1.116
1276.000, 0.574
1277.000, 0.347
1278.000, 0.362
1279.000, 0.377
1280.000, 0.392
1281.000, 0.947
1282.000, 1.326
1283.000, 0.787
1284.000, 0.459
1285.000, 0.473
1286.000, 0.488
1287.000, 0.481
1288.000, 0.483
1289.000, 0.497
1290.000, 0.510
1291.000, 0.527
1292.000, 0.540
1293.000, 0.554
1294.000, 0.567
1295.000, 0.581
1296.000, 0.595
1297.000, 0.608
1298.000, 0.622
1299.000, 0.635
1300.000, 0.801
1301.000, 1.376
1302.000, 1.396
1303.000, 0.826
1304.000, 0.652
1305.000, 0.666
1306.000, 0.679
1307.000, 0.692
1308.000, 0.691
1309.000, 0.703
1310.000, 0.716
1311.000, 0.728
1312.000, 0.729
1313.000, 0.732
1314.000, 0.737
1315.000, 0.743
1316.000, 0.755
1317.000, 0.766
1318.000, 1.044
1319.000, 1.616
1320.000, 1.796
1321.000, 1.806
1322.000, 1.293
1323.000, 0.915
1324.000, 1.490
1325.000, 1.847
1326.000, 1.857
1327.000, 1.519
1328.000, 0.963
1329.000, 0.407
1330.000, 0.015
1331.000, 1.127
1332.000, 1.560
1333.000, 0.410
1334.000, 0.179
1335.000, 0.755
1336.000, 0.443
1337.000, 0.093
1338.000, 0.484
1339.000, 0.913
1340.000, 0.916
1341.000, 0.886
1342.000, 0.893
1343.000, 0.483
1344.000, 0.092
1345.000, 0.117
1346.000, 0.109
1347.000, 0.101
1348.000, 0.169
1349.000, 0.746
1350.000, 0.921
1351.000, 0.928
1352.000, 0.915
1353.000, 0.922
1354.000, 0.929
1355.000, 1.186
1356.000, 1.744
1357.000, 1.511
1358.000, 0.928
1359.000, 0.886
1360.000, 0.877
1361.000, 0.869
1362.000, 0.862
1363.000, 0.856
1364.000, 0.851
1365.000, 0.856
1366.000, 0.862
1367.000, 0.868
1368.000, 0.875
1369.000, 0.881
1370.000, 0.887
1371.000, 0.893
1372.000, 0.921
1373.000, 0.948
1374.000, 0.954
1375.000, 0.960
1376.000, 0.967
1377.000, 0.973
1378.000, 0.979
1379.000, 0.985
1380.000, 0.992
1381.000, 0.997
1382.000, 1.004
1383.000, 1.009
1384.000, 1.013
1385.000, 1.483
1386.000, 1.975
1387.000, 1.400
1388.000, 0.825
1389.000, 0.251
1390.000, 0.029
1391.000, 0.032
1392.000, 0.543
1393.000, 1.037
1394.000, 1.042
1395.000, 1.048
1396.000, 1.054
1397.000, 0.658
1398.000, 0.084
1399.000, 0.634
1400.000, 1.078
1401.000, 1.084
1402.000, 0.789
1403.000, 0.215
1404.000, 0.564
1405.000, 1.066
1406.000, 0.491
1407.000, 0.120
1408.000, 0.126
1409.000, 0.500
1410.000, 1.087
1411.000, 0.612
1412.000, 0.149
1413.000, 0.155
1414.000, 0.438
1415.000, 1.025
1416.000, 0.706
1417.000, 0.182
1418.000, 0.766
1419.000, 0.942
1420.000, 0.362
1421.000, 0.145
1422.000, 0.150
1423.000, 0.110
1424.000, 0.186
1425.000, 0.771
1426.000, 1.075
1427.000, 1.079
1428.000, 1.083
1429.000, 1.088
1430.000, 1.093
1431.000, 1.098
1432.000, 1.104
1433.000, 0.723
1434.000, 0.143
1435.000, 0.683
1436.000, 1.128
1437.000, 1.134
1438.000, 0.816
1439.000, 0.234
1440.000, 0.648
1441.000, 1.155
1442.000, 1.160
1443.000, 1.165
1444.000, 1.170
1445.000, 1.174
1446.000, 1.166
1447.000, 1.171
1448.000, 1.176
1449.000, 1.181
1450.000, 1.572
1451.000, 2.167
1452.000, 1.047
1453.000, 0.356
1454.000, 0.948
1455.000, 1.196
1456.000, 1.200
1457.000, 0.671
1458.000, 0.322
1459.000, 0.917
1460.000, 0.906
1461.000, 0.316
1462.000, 0.702
1463.000, 1.138
1464.000, 0.553
1465.000, 0.236
1466.000, 0.244
1467.000, 0.708
1468.000, 1.208
1469.000, 0.623
1470.000, 0.275
1471.000, 0.284
1472.000, 0.292
1473.000, 0.301
1474.000, 0.311
1475.000, 0.322
1476.000, 0.332
1477.000, 0.344
1478.000, 0.353
1479.000, 0.230
1480.000, 0.227
1481.000, 0.983
1482.000, 1.025
1483.000, 0.445
1484.000, 0.450
1485.000, 0.470
1486.000, 0.491
1487.000, 0.892
1488.000, 1.515
1489.000, 1.565
1490.000, 1.378
1491.000, 1.146
1492.000, 1.125
1493.000, 1.093
1494.000, 1.044
1495.000, 0.967
1496.000, 0.920
1497.000, 0.890
1498.000, 0.873
1499.000, 0.321
1500.000, 0.000
##END=



